# Energy/GHz, Transmittance Spectrum
-3.00000e-01 -2.3412e-10
-2.99991e-01 -2.3417e-10
-2.99981e-01 -2.3422e-10
-2.99972e-01 -2.3427e-10
-2.99963e-01 -2.3432e-10
-2.99953e-01 -2.3437e-10
-2.99944e-01 -2.3442e-10
-2.99935e-01 -2.3447e-10
-2.99925e-01 -2.3452e-10
-2.99916e-01 -2.3457e-10
-2.99907e-01 -2.3462e-10
-2.99897e-01 -2.3467e-10
-2.99888e-01 -2.3472e-10
-2.99879e-01 -2.3477e-10
-2.99869e-01 -2.3482e-10
-2.99860e-01 -2.3487e-10
-2.99851e-01 -2.3492e-10
-2.99841e-01 -2.3497e-10
-2.99832e-01 -2.3503e-10
-2.99823e-01 -2.3508e-10
-2.99813e-01 -2.3513e-10
-2.99804e-01 -2.3518e-10
-2.99795e-01 -2.3523e-10
-2.99785e-01 -2.3528e-10
-2.99776e-01 -2.3533e-10
-2.99767e-01 -2.3538e-10
-2.99757e-01 -2.3543e-10
-2.99748e-01 -2.3548e-10
-2.99739e-01 -2.3553e-10
-2.99729e-01 -2.3558e-10
-2.99720e-01 -2.3563e-10
-2.99711e-01 -2.3568e-10
-2.99701e-01 -2.3573e-10
-2.99692e-01 -2.3579e-10
-2.99683e-01 -2.3584e-10
-2.99673e-01 -2.3589e-10
-2.99664e-01 -2.3594e-10
-2.99655e-01 -2.3599e-10
-2.99645e-01 -2.3604e-10
-2.99636e-01 -2.3609e-10
-2.99627e-01 -2.3614e-10
-2.99617e-01 -2.3619e-10
-2.99608e-01 -2.3624e-10
-2.99599e-01 -2.3629e-10
-2.99589e-01 -2.3635e-10
-2.99580e-01 -2.3640e-10
-2.99571e-01 -2.3645e-10
-2.99561e-01 -2.3650e-10
-2.99552e-01 -2.3655e-10
-2.99543e-01 -2.3660e-10
-2.99533e-01 -2.3665e-10
-2.99524e-01 -2.3670e-10
-2.99515e-01 -2.3675e-10
-2.99505e-01 -2.3680e-10
-2.99496e-01 -2.3686e-10
-2.99487e-01 -2.3691e-10
-2.99477e-01 -2.3696e-10
-2.99468e-01 -2.3701e-10
-2.99459e-01 -2.3706e-10
-2.99449e-01 -2.3711e-10
-2.99440e-01 -2.3716e-10
-2.99431e-01 -2.3721e-10
-2.99421e-01 -2.3726e-10
-2.99412e-01 -2.3732e-10
-2.99403e-01 -2.3737e-10
-2.99393e-01 -2.3742e-10
-2.99384e-01 -2.3747e-10
-2.99375e-01 -2.3752e-10
-2.99365e-01 -2.3757e-10
-2.99356e-01 -2.3762e-10
-2.99347e-01 -2.3768e-10
-2.99337e-01 -2.3773e-10
-2.99328e-01 -2.3778e-10
-2.99319e-01 -2.3783e-10
-2.99309e-01 -2.3788e-10
-2.99300e-01 -2.3793e-10
-2.99291e-01 -2.3798e-10
-2.99281e-01 -2.3803e-10
-2.99272e-01 -2.3809e-10
-2.99263e-01 -2.3814e-10
-2.99253e-01 -2.3819e-10
-2.99244e-01 -2.3824e-10
-2.99235e-01 -2.3829e-10
-2.99225e-01 -2.3834e-10
-2.99216e-01 -2.3840e-10
-2.99207e-01 -2.3845e-10
-2.99197e-01 -2.3850e-10
-2.99188e-01 -2.3855e-10
-2.99179e-01 -2.3860e-10
-2.99169e-01 -2.3865e-10
-2.99160e-01 -2.3870e-10
-2.99151e-01 -2.3876e-10
-2.99141e-01 -2.3881e-10
-2.99132e-01 -2.3886e-10
-2.99123e-01 -2.3891e-10
-2.99113e-01 -2.3896e-10
-2.99104e-01 -2.3902e-10
-2.99095e-01 -2.3907e-10
-2.99085e-01 -2.3912e-10
-2.99076e-01 -2.3917e-10
-2.99067e-01 -2.3922e-10
-2.99057e-01 -2.3927e-10
-2.99048e-01 -2.3933e-10
-2.99039e-01 -2.3938e-10
-2.99029e-01 -2.3943e-10
-2.99020e-01 -2.3948e-10
-2.99011e-01 -2.3953e-10
-2.99001e-01 -2.3958e-10
-2.98992e-01 -2.3964e-10
-2.98983e-01 -2.3969e-10
-2.98973e-01 -2.3974e-10
-2.98964e-01 -2.3979e-10
-2.98955e-01 -2.3984e-10
-2.98945e-01 -2.3990e-10
-2.98936e-01 -2.3995e-10
-2.98927e-01 -2.4000e-10
-2.98917e-01 -2.4005e-10
-2.98908e-01 -2.4010e-10
-2.98899e-01 -2.4016e-10
-2.98889e-01 -2.4021e-10
-2.98880e-01 -2.4026e-10
-2.98871e-01 -2.4031e-10
-2.98861e-01 -2.4036e-10
-2.98852e-01 -2.4042e-10
-2.98843e-01 -2.4047e-10
-2.98833e-01 -2.4052e-10
-2.98824e-01 -2.4057e-10
-2.98815e-01 -2.4063e-10
-2.98805e-01 -2.4068e-10
-2.98796e-01 -2.4073e-10
-2.98787e-01 -2.4078e-10
-2.98777e-01 -2.4083e-10
-2.98768e-01 -2.4089e-10
-2.98759e-01 -2.4094e-10
-2.98749e-01 -2.4099e-10
-2.98740e-01 -2.4104e-10
-2.98731e-01 -2.4110e-10
-2.98721e-01 -2.4115e-10
-2.98712e-01 -2.4120e-10
-2.98703e-01 -2.4125e-10
-2.98693e-01 -2.4131e-10
-2.98684e-01 -2.4136e-10
-2.98675e-01 -2.4141e-10
-2.98665e-01 -2.4146e-10
-2.98656e-01 -2.4152e-10
-2.98647e-01 -2.4157e-10
-2.98637e-01 -2.4162e-10
-2.98628e-01 -2.4167e-10
-2.98619e-01 -2.4172e-10
-2.98609e-01 -2.4178e-10
-2.98600e-01 -2.4183e-10
-2.98591e-01 -2.4188e-10
-2.98581e-01 -2.4194e-10
-2.98572e-01 -2.4199e-10
-2.98563e-01 -2.4204e-10
-2.98553e-01 -2.4209e-10
-2.98544e-01 -2.4215e-10
-2.98535e-01 -2.4220e-10
-2.98525e-01 -2.4225e-10
-2.98516e-01 -2.4230e-10
-2.98507e-01 -2.4236e-10
-2.98497e-01 -2.4241e-10
-2.98488e-01 -2.4246e-10
-2.98479e-01 -2.4251e-10
-2.98469e-01 -2.4257e-10
-2.98460e-01 -2.4262e-10
-2.98451e-01 -2.4267e-10
-2.98441e-01 -2.4273e-10
-2.98432e-01 -2.4278e-10
-2.98423e-01 -2.4283e-10
-2.98413e-01 -2.4288e-10
-2.98404e-01 -2.4294e-10
-2.98395e-01 -2.4299e-10
-2.98385e-01 -2.4304e-10
-2.98376e-01 -2.4310e-10
-2.98367e-01 -2.4315e-10
-2.98357e-01 -2.4320e-10
-2.98348e-01 -2.4325e-10
-2.98339e-01 -2.4331e-10
-2.98329e-01 -2.4336e-10
-2.98320e-01 -2.4341e-10
-2.98311e-01 -2.4347e-10
-2.98301e-01 -2.4352e-10
-2.98292e-01 -2.4357e-10
-2.98283e-01 -2.4363e-10
-2.98273e-01 -2.4368e-10
-2.98264e-01 -2.4373e-10
-2.98255e-01 -2.4378e-10
-2.98245e-01 -2.4384e-10
-2.98236e-01 -2.4389e-10
-2.98227e-01 -2.4394e-10
-2.98217e-01 -2.4400e-10
-2.98208e-01 -2.4405e-10
-2.98199e-01 -2.4410e-10
-2.98189e-01 -2.4416e-10
-2.98180e-01 -2.4421e-10
-2.98171e-01 -2.4426e-10
-2.98161e-01 -2.4432e-10
-2.98152e-01 -2.4437e-10
-2.98143e-01 -2.4442e-10
-2.98133e-01 -2.4448e-10
-2.98124e-01 -2.4453e-10
-2.98115e-01 -2.4458e-10
-2.98105e-01 -2.4464e-10
-2.98096e-01 -2.4469e-10
-2.98087e-01 -2.4474e-10
-2.98077e-01 -2.4480e-10
-2.98068e-01 -2.4485e-10
-2.98059e-01 -2.4490e-10
-2.98049e-01 -2.4496e-10
-2.98040e-01 -2.4501e-10
-2.98031e-01 -2.4506e-10
-2.98021e-01 -2.4512e-10
-2.98012e-01 -2.4517e-10
-2.98003e-01 -2.4522e-10
-2.97993e-01 -2.4528e-10
-2.97984e-01 -2.4533e-10
-2.97975e-01 -2.4538e-10
-2.97965e-01 -2.4544e-10
-2.97956e-01 -2.4549e-10
-2.97947e-01 -2.4554e-10
-2.97937e-01 -2.4560e-10
-2.97928e-01 -2.4565e-10
-2.97919e-01 -2.4571e-10
-2.97909e-01 -2.4576e-10
-2.97900e-01 -2.4581e-10
-2.97891e-01 -2.4587e-10
-2.97881e-01 -2.4592e-10
-2.97872e-01 -2.4597e-10
-2.97863e-01 -2.4603e-10
-2.97853e-01 -2.4608e-10
-2.97844e-01 -2.4614e-10
-2.97835e-01 -2.4619e-10
-2.97825e-01 -2.4624e-10
-2.97816e-01 -2.4630e-10
-2.97807e-01 -2.4635e-10
-2.97797e-01 -2.4640e-10
-2.97788e-01 -2.4646e-10
-2.97779e-01 -2.4651e-10
-2.97769e-01 -2.4657e-10
-2.97760e-01 -2.4662e-10
-2.97751e-01 -2.4667e-10
-2.97741e-01 -2.4673e-10
-2.97732e-01 -2.4678e-10
-2.97723e-01 -2.4684e-10
-2.97713e-01 -2.4689e-10
-2.97704e-01 -2.4694e-10
-2.97695e-01 -2.4700e-10
-2.97685e-01 -2.4705e-10
-2.97676e-01 -2.4711e-10
-2.97667e-01 -2.4716e-10
-2.97657e-01 -2.4721e-10
-2.97648e-01 -2.4727e-10
-2.97639e-01 -2.4732e-10
-2.97629e-01 -2.4738e-10
-2.97620e-01 -2.4743e-10
-2.97611e-01 -2.4748e-10
-2.97601e-01 -2.4754e-10
-2.97592e-01 -2.4759e-10
-2.97583e-01 -2.4765e-10
-2.97573e-01 -2.4770e-10
-2.97564e-01 -2.4776e-10
-2.97555e-01 -2.4781e-10
-2.97545e-01 -2.4786e-10
-2.97536e-01 -2.4792e-10
-2.97527e-01 -2.4797e-10
-2.97517e-01 -2.4803e-10
-2.97508e-01 -2.4808e-10
-2.97499e-01 -2.4814e-10
-2.97489e-01 -2.4819e-10
-2.97480e-01 -2.4824e-10
-2.97471e-01 -2.4830e-10
-2.97461e-01 -2.4835e-10
-2.97452e-01 -2.4841e-10
-2.97443e-01 -2.4846e-10
-2.97433e-01 -2.4852e-10
-2.97424e-01 -2.4857e-10
-2.97415e-01 -2.4863e-10
-2.97405e-01 -2.4868e-10
-2.97396e-01 -2.4874e-10
-2.97387e-01 -2.4879e-10
-2.97377e-01 -2.4884e-10
-2.97368e-01 -2.4890e-10
-2.97359e-01 -2.4895e-10
-2.97349e-01 -2.4901e-10
-2.97340e-01 -2.4906e-10
-2.97331e-01 -2.4912e-10
-2.97321e-01 -2.4917e-10
-2.97312e-01 -2.4923e-10
-2.97303e-01 -2.4928e-10
-2.97293e-01 -2.4934e-10
-2.97284e-01 -2.4939e-10
-2.97275e-01 -2.4945e-10
-2.97265e-01 -2.4950e-10
-2.97256e-01 -2.4955e-10
-2.97247e-01 -2.4961e-10
-2.97237e-01 -2.4966e-10
-2.97228e-01 -2.4972e-10
-2.97219e-01 -2.4977e-10
-2.97209e-01 -2.4983e-10
-2.97200e-01 -2.4988e-10
-2.97191e-01 -2.4994e-10
-2.97181e-01 -2.4999e-10
-2.97172e-01 -2.5005e-10
-2.97163e-01 -2.5010e-10
-2.97153e-01 -2.5016e-10
-2.97144e-01 -2.5021e-10
-2.97135e-01 -2.5027e-10
-2.97125e-01 -2.5032e-10
-2.97116e-01 -2.5038e-10
-2.97107e-01 -2.5043e-10
-2.97097e-01 -2.5049e-10
-2.97088e-01 -2.5054e-10
-2.97079e-01 -2.5060e-10
-2.97069e-01 -2.5065e-10
-2.97060e-01 -2.5071e-10
-2.97051e-01 -2.5076e-10
-2.97041e-01 -2.5082e-10
-2.97032e-01 -2.5087e-10
-2.97023e-01 -2.5093e-10
-2.97013e-01 -2.5098e-10
-2.97004e-01 -2.5104e-10
-2.96995e-01 -2.5109e-10
-2.96985e-01 -2.5115e-10
-2.96976e-01 -2.5121e-10
-2.96967e-01 -2.5126e-10
-2.96957e-01 -2.5132e-10
-2.96948e-01 -2.5137e-10
-2.96939e-01 -2.5143e-10
-2.96929e-01 -2.5148e-10
-2.96920e-01 -2.5154e-10
-2.96911e-01 -2.5159e-10
-2.96901e-01 -2.5165e-10
-2.96892e-01 -2.5170e-10
-2.96883e-01 -2.5176e-10
-2.96873e-01 -2.5181e-10
-2.96864e-01 -2.5187e-10
-2.96855e-01 -2.5192e-10
-2.96845e-01 -2.5198e-10
-2.96836e-01 -2.5204e-10
-2.96827e-01 -2.5209e-10
-2.96817e-01 -2.5215e-10
-2.96808e-01 -2.5220e-10
-2.96799e-01 -2.5226e-10
-2.96789e-01 -2.5231e-10
-2.96780e-01 -2.5237e-10
-2.96771e-01 -2.5242e-10
-2.96761e-01 -2.5248e-10
-2.96752e-01 -2.5254e-10
-2.96743e-01 -2.5259e-10
-2.96733e-01 -2.5265e-10
-2.96724e-01 -2.5270e-10
-2.96715e-01 -2.5276e-10
-2.96705e-01 -2.5281e-10
-2.96696e-01 -2.5287e-10
-2.96687e-01 -2.5293e-10
-2.96677e-01 -2.5298e-10
-2.96668e-01 -2.5304e-10
-2.96659e-01 -2.5309e-10
-2.96649e-01 -2.5315e-10
-2.96640e-01 -2.5320e-10
-2.96631e-01 -2.5326e-10
-2.96621e-01 -2.5332e-10
-2.96612e-01 -2.5337e-10
-2.96603e-01 -2.5343e-10
-2.96593e-01 -2.5348e-10
-2.96584e-01 -2.5354e-10
-2.96575e-01 -2.5360e-10
-2.96565e-01 -2.5365e-10
-2.96556e-01 -2.5371e-10
-2.96547e-01 -2.5376e-10
-2.96537e-01 -2.5382e-10
-2.96528e-01 -2.5388e-10
-2.96519e-01 -2.5393e-10
-2.96509e-01 -2.5399e-10
-2.96500e-01 -2.5404e-10
-2.96491e-01 -2.5410e-10
-2.96481e-01 -2.5416e-10
-2.96472e-01 -2.5421e-10
-2.96463e-01 -2.5427e-10
-2.96453e-01 -2.5433e-10
-2.96444e-01 -2.5438e-10
-2.96435e-01 -2.5444e-10
-2.96425e-01 -2.5449e-10
-2.96416e-01 -2.5455e-10
-2.96407e-01 -2.5461e-10
-2.96397e-01 -2.5466e-10
-2.96388e-01 -2.5472e-10
-2.96379e-01 -2.5477e-10
-2.96369e-01 -2.5483e-10
-2.96360e-01 -2.5489e-10
-2.96351e-01 -2.5494e-10
-2.96341e-01 -2.5500e-10
-2.96332e-01 -2.5506e-10
-2.96323e-01 -2.5511e-10
-2.96313e-01 -2.5517e-10
-2.96304e-01 -2.5523e-10
-2.96295e-01 -2.5528e-10
-2.96285e-01 -2.5534e-10
-2.96276e-01 -2.5540e-10
-2.96267e-01 -2.5545e-10
-2.96257e-01 -2.5551e-10
-2.96248e-01 -2.5556e-10
-2.96239e-01 -2.5562e-10
-2.96229e-01 -2.5568e-10
-2.96220e-01 -2.5573e-10
-2.96211e-01 -2.5579e-10
-2.96201e-01 -2.5585e-10
-2.96192e-01 -2.5590e-10
-2.96183e-01 -2.5596e-10
-2.96173e-01 -2.5602e-10
-2.96164e-01 -2.5607e-10
-2.96155e-01 -2.5613e-10
-2.96145e-01 -2.5619e-10
-2.96136e-01 -2.5624e-10
-2.96127e-01 -2.5630e-10
-2.96117e-01 -2.5636e-10
-2.96108e-01 -2.5641e-10
-2.96099e-01 -2.5647e-10
-2.96089e-01 -2.5653e-10
-2.96080e-01 -2.5659e-10
-2.96071e-01 -2.5664e-10
-2.96061e-01 -2.5670e-10
-2.96052e-01 -2.5676e-10
-2.96043e-01 -2.5681e-10
-2.96033e-01 -2.5687e-10
-2.96024e-01 -2.5693e-10
-2.96015e-01 -2.5698e-10
-2.96005e-01 -2.5704e-10
-2.95996e-01 -2.5710e-10
-2.95987e-01 -2.5715e-10
-2.95977e-01 -2.5721e-10
-2.95968e-01 -2.5727e-10
-2.95959e-01 -2.5733e-10
-2.95949e-01 -2.5738e-10
-2.95940e-01 -2.5744e-10
-2.95931e-01 -2.5750e-10
-2.95921e-01 -2.5755e-10
-2.95912e-01 -2.5761e-10
-2.95903e-01 -2.5767e-10
-2.95893e-01 -2.5772e-10
-2.95884e-01 -2.5778e-10
-2.95875e-01 -2.5784e-10
-2.95865e-01 -2.5790e-10
-2.95856e-01 -2.5795e-10
-2.95847e-01 -2.5801e-10
-2.95837e-01 -2.5807e-10
-2.95828e-01 -2.5813e-10
-2.95819e-01 -2.5818e-10
-2.95809e-01 -2.5824e-10
-2.95800e-01 -2.5830e-10
-2.95791e-01 -2.5835e-10
-2.95781e-01 -2.5841e-10
-2.95772e-01 -2.5847e-10
-2.95763e-01 -2.5853e-10
-2.95753e-01 -2.5858e-10
-2.95744e-01 -2.5864e-10
-2.95735e-01 -2.5870e-10
-2.95725e-01 -2.5876e-10
-2.95716e-01 -2.5881e-10
-2.95707e-01 -2.5887e-10
-2.95697e-01 -2.5893e-10
-2.95688e-01 -2.5899e-10
-2.95679e-01 -2.5904e-10
-2.95669e-01 -2.5910e-10
-2.95660e-01 -2.5916e-10
-2.95651e-01 -2.5922e-10
-2.95641e-01 -2.5927e-10
-2.95632e-01 -2.5933e-10
-2.95623e-01 -2.5939e-10
-2.95613e-01 -2.5945e-10
-2.95604e-01 -2.5951e-10
-2.95595e-01 -2.5956e-10
-2.95585e-01 -2.5962e-10
-2.95576e-01 -2.5968e-10
-2.95567e-01 -2.5974e-10
-2.95557e-01 -2.5979e-10
-2.95548e-01 -2.5985e-10
-2.95539e-01 -2.5991e-10
-2.95529e-01 -2.5997e-10
-2.95520e-01 -2.6003e-10
-2.95511e-01 -2.6008e-10
-2.95501e-01 -2.6014e-10
-2.95492e-01 -2.6020e-10
-2.95483e-01 -2.6026e-10
-2.95473e-01 -2.6031e-10
-2.95464e-01 -2.6037e-10
-2.95455e-01 -2.6043e-10
-2.95445e-01 -2.6049e-10
-2.95436e-01 -2.6055e-10
-2.95427e-01 -2.6060e-10
-2.95417e-01 -2.6066e-10
-2.95408e-01 -2.6072e-10
-2.95399e-01 -2.6078e-10
-2.95389e-01 -2.6084e-10
-2.95380e-01 -2.6089e-10
-2.95371e-01 -2.6095e-10
-2.95361e-01 -2.6101e-10
-2.95352e-01 -2.6107e-10
-2.95343e-01 -2.6113e-10
-2.95333e-01 -2.6119e-10
-2.95324e-01 -2.6124e-10
-2.95315e-01 -2.6130e-10
-2.95305e-01 -2.6136e-10
-2.95296e-01 -2.6142e-10
-2.95287e-01 -2.6148e-10
-2.95277e-01 -2.6153e-10
-2.95268e-01 -2.6159e-10
-2.95259e-01 -2.6165e-10
-2.95249e-01 -2.6171e-10
-2.95240e-01 -2.6177e-10
-2.95231e-01 -2.6183e-10
-2.95221e-01 -2.6189e-10
-2.95212e-01 -2.6194e-10
-2.95203e-01 -2.6200e-10
-2.95193e-01 -2.6206e-10
-2.95184e-01 -2.6212e-10
-2.95175e-01 -2.6218e-10
-2.95165e-01 -2.6224e-10
-2.95156e-01 -2.6229e-10
-2.95147e-01 -2.6235e-10
-2.95137e-01 -2.6241e-10
-2.95128e-01 -2.6247e-10
-2.95119e-01 -2.6253e-10
-2.95109e-01 -2.6259e-10
-2.95100e-01 -2.6265e-10
-2.95091e-01 -2.6270e-10
-2.95081e-01 -2.6276e-10
-2.95072e-01 -2.6282e-10
-2.95063e-01 -2.6288e-10
-2.95053e-01 -2.6294e-10
-2.95044e-01 -2.6300e-10
-2.95035e-01 -2.6306e-10
-2.95025e-01 -2.6312e-10
-2.95016e-01 -2.6317e-10
-2.95007e-01 -2.6323e-10
-2.94997e-01 -2.6329e-10
-2.94988e-01 -2.6335e-10
-2.94979e-01 -2.6341e-10
-2.94969e-01 -2.6347e-10
-2.94960e-01 -2.6353e-10
-2.94951e-01 -2.6359e-10
-2.94941e-01 -2.6364e-10
-2.94932e-01 -2.6370e-10
-2.94923e-01 -2.6376e-10
-2.94913e-01 -2.6382e-10
-2.94904e-01 -2.6388e-10
-2.94895e-01 -2.6394e-10
-2.94885e-01 -2.6400e-10
-2.94876e-01 -2.6406e-10
-2.94867e-01 -2.6412e-10
-2.94857e-01 -2.6418e-10
-2.94848e-01 -2.6423e-10
-2.94839e-01 -2.6429e-10
-2.94829e-01 -2.6435e-10
-2.94820e-01 -2.6441e-10
-2.94811e-01 -2.6447e-10
-2.94801e-01 -2.6453e-10
-2.94792e-01 -2.6459e-10
-2.94783e-01 -2.6465e-10
-2.94773e-01 -2.6471e-10
-2.94764e-01 -2.6477e-10
-2.94755e-01 -2.6483e-10
-2.94745e-01 -2.6489e-10
-2.94736e-01 -2.6495e-10
-2.94727e-01 -2.6500e-10
-2.94717e-01 -2.6506e-10
-2.94708e-01 -2.6512e-10
-2.94699e-01 -2.6518e-10
-2.94689e-01 -2.6524e-10
-2.94680e-01 -2.6530e-10
-2.94671e-01 -2.6536e-10
-2.94661e-01 -2.6542e-10
-2.94652e-01 -2.6548e-10
-2.94643e-01 -2.6554e-10
-2.94633e-01 -2.6560e-10
-2.94624e-01 -2.6566e-10
-2.94615e-01 -2.6572e-10
-2.94605e-01 -2.6578e-10
-2.94596e-01 -2.6584e-10
-2.94587e-01 -2.6590e-10
-2.94577e-01 -2.6596e-10
-2.94568e-01 -2.6602e-10
-2.94559e-01 -2.6608e-10
-2.94549e-01 -2.6613e-10
-2.94540e-01 -2.6619e-10
-2.94531e-01 -2.6625e-10
-2.94521e-01 -2.6631e-10
-2.94512e-01 -2.6637e-10
-2.94503e-01 -2.6643e-10
-2.94493e-01 -2.6649e-10
-2.94484e-01 -2.6655e-10
-2.94475e-01 -2.6661e-10
-2.94465e-01 -2.6667e-10
-2.94456e-01 -2.6673e-10
-2.94447e-01 -2.6679e-10
-2.94437e-01 -2.6685e-10
-2.94428e-01 -2.6691e-10
-2.94419e-01 -2.6697e-10
-2.94409e-01 -2.6703e-10
-2.94400e-01 -2.6709e-10
-2.94391e-01 -2.6715e-10
-2.94381e-01 -2.6721e-10
-2.94372e-01 -2.6727e-10
-2.94363e-01 -2.6733e-10
-2.94353e-01 -2.6739e-10
-2.94344e-01 -2.6745e-10
-2.94335e-01 -2.6751e-10
-2.94325e-01 -2.6757e-10
-2.94316e-01 -2.6763e-10
-2.94307e-01 -2.6769e-10
-2.94297e-01 -2.6775e-10
-2.94288e-01 -2.6781e-10
-2.94279e-01 -2.6787e-10
-2.94269e-01 -2.6793e-10
-2.94260e-01 -2.6799e-10
-2.94251e-01 -2.6805e-10
-2.94241e-01 -2.6811e-10
-2.94232e-01 -2.6817e-10
-2.94223e-01 -2.6823e-10
-2.94213e-01 -2.6829e-10
-2.94204e-01 -2.6835e-10
-2.94195e-01 -2.6841e-10
-2.94185e-01 -2.6847e-10
-2.94176e-01 -2.6854e-10
-2.94167e-01 -2.6860e-10
-2.94157e-01 -2.6866e-10
-2.94148e-01 -2.6872e-10
-2.94139e-01 -2.6878e-10
-2.94129e-01 -2.6884e-10
-2.94120e-01 -2.6890e-10
-2.94111e-01 -2.6896e-10
-2.94101e-01 -2.6902e-10
-2.94092e-01 -2.6908e-10
-2.94083e-01 -2.6914e-10
-2.94073e-01 -2.6920e-10
-2.94064e-01 -2.6926e-10
-2.94055e-01 -2.6932e-10
-2.94045e-01 -2.6938e-10
-2.94036e-01 -2.6944e-10
-2.94027e-01 -2.6950e-10
-2.94017e-01 -2.6956e-10
-2.94008e-01 -2.6962e-10
-2.93999e-01 -2.6969e-10
-2.93989e-01 -2.6975e-10
-2.93980e-01 -2.6981e-10
-2.93971e-01 -2.6987e-10
-2.93961e-01 -2.6993e-10
-2.93952e-01 -2.6999e-10
-2.93943e-01 -2.7005e-10
-2.93933e-01 -2.7011e-10
-2.93924e-01 -2.7017e-10
-2.93915e-01 -2.7023e-10
-2.93905e-01 -2.7029e-10
-2.93896e-01 -2.7035e-10
-2.93887e-01 -2.7042e-10
-2.93877e-01 -2.7048e-10
-2.93868e-01 -2.7054e-10
-2.93859e-01 -2.7060e-10
-2.93849e-01 -2.7066e-10
-2.93840e-01 -2.7072e-10
-2.93831e-01 -2.7078e-10
-2.93821e-01 -2.7084e-10
-2.93812e-01 -2.7090e-10
-2.93803e-01 -2.7096e-10
-2.93793e-01 -2.7103e-10
-2.93784e-01 -2.7109e-10
-2.93775e-01 -2.7115e-10
-2.93765e-01 -2.7121e-10
-2.93756e-01 -2.7127e-10
-2.93747e-01 -2.7133e-10
-2.93737e-01 -2.7139e-10
-2.93728e-01 -2.7145e-10
-2.93719e-01 -2.7152e-10
-2.93709e-01 -2.7158e-10
-2.93700e-01 -2.7164e-10
-2.93691e-01 -2.7170e-10
-2.93681e-01 -2.7176e-10
-2.93672e-01 -2.7182e-10
-2.93663e-01 -2.7188e-10
-2.93653e-01 -2.7194e-10
-2.93644e-01 -2.7201e-10
-2.93635e-01 -2.7207e-10
-2.93625e-01 -2.7213e-10
-2.93616e-01 -2.7219e-10
-2.93607e-01 -2.7225e-10
-2.93597e-01 -2.7231e-10
-2.93588e-01 -2.7237e-10
-2.93579e-01 -2.7244e-10
-2.93569e-01 -2.7250e-10
-2.93560e-01 -2.7256e-10
-2.93551e-01 -2.7262e-10
-2.93541e-01 -2.7268e-10
-2.93532e-01 -2.7274e-10
-2.93523e-01 -2.7281e-10
-2.93513e-01 -2.7287e-10
-2.93504e-01 -2.7293e-10
-2.93495e-01 -2.7299e-10
-2.93485e-01 -2.7305e-10
-2.93476e-01 -2.7311e-10
-2.93467e-01 -2.7318e-10
-2.93457e-01 -2.7324e-10
-2.93448e-01 -2.7330e-10
-2.93439e-01 -2.7336e-10
-2.93429e-01 -2.7342e-10
-2.93420e-01 -2.7349e-10
-2.93411e-01 -2.7355e-10
-2.93401e-01 -2.7361e-10
-2.93392e-01 -2.7367e-10
-2.93383e-01 -2.7373e-10
-2.93373e-01 -2.7379e-10
-2.93364e-01 -2.7386e-10
-2.93355e-01 -2.7392e-10
-2.93345e-01 -2.7398e-10
-2.93336e-01 -2.7404e-10
-2.93327e-01 -2.7410e-10
-2.93317e-01 -2.7417e-10
-2.93308e-01 -2.7423e-10
-2.93299e-01 -2.7429e-10
-2.93289e-01 -2.7435e-10
-2.93280e-01 -2.7442e-10
-2.93271e-01 -2.7448e-10
-2.93261e-01 -2.7454e-10
-2.93252e-01 -2.7460e-10
-2.93243e-01 -2.7466e-10
-2.93233e-01 -2.7473e-10
-2.93224e-01 -2.7479e-10
-2.93215e-01 -2.7485e-10
-2.93205e-01 -2.7491e-10
-2.93196e-01 -2.7498e-10
-2.93187e-01 -2.7504e-10
-2.93177e-01 -2.7510e-10
-2.93168e-01 -2.7516e-10
-2.93159e-01 -2.7522e-10
-2.93149e-01 -2.7529e-10
-2.93140e-01 -2.7535e-10
-2.93131e-01 -2.7541e-10
-2.93121e-01 -2.7547e-10
-2.93112e-01 -2.7554e-10
-2.93103e-01 -2.7560e-10
-2.93093e-01 -2.7566e-10
-2.93084e-01 -2.7572e-10
-2.93075e-01 -2.7579e-10
-2.93065e-01 -2.7585e-10
-2.93056e-01 -2.7591e-10
-2.93047e-01 -2.7597e-10
-2.93037e-01 -2.7604e-10
-2.93028e-01 -2.7610e-10
-2.93019e-01 -2.7616e-10
-2.93009e-01 -2.7623e-10
-2.93000e-01 -2.7629e-10
-2.92991e-01 -2.7635e-10
-2.92981e-01 -2.7641e-10
-2.92972e-01 -2.7648e-10
-2.92963e-01 -2.7654e-10
-2.92953e-01 -2.7660e-10
-2.92944e-01 -2.7666e-10
-2.92935e-01 -2.7673e-10
-2.92925e-01 -2.7679e-10
-2.92916e-01 -2.7685e-10
-2.92907e-01 -2.7692e-10
-2.92897e-01 -2.7698e-10
-2.92888e-01 -2.7704e-10
-2.92879e-01 -2.7710e-10
-2.92869e-01 -2.7717e-10
-2.92860e-01 -2.7723e-10
-2.92851e-01 -2.7729e-10
